time[s]	u[ft/s]	v[ft/s]	w[ft/s]	p[rad/s]	q[rad/s]	r[rad/s]	xf[ft]	yf[ft]	zf[ft]	e0	ex	ey	ez
0.0000000000E+00	5.0000000000E+01	0.0000000000E+00	0.0000000000E+00	0.0000000000E+00	0.0000000000E+00	0.0000000000E+00	0.0000000000E+00	0.0000000000E+00	-2.0000000000E+02	1.0000000000E+00	0.0000000000E+00	0.0000000000E+00	0.0000000000E+00
1.0000000000E-02	4.9100608354E+01	0.0000000000E+00	3.1884034445E-01	0.0000000000E+00	0.0000000000E+00	0.0000000000E+00	4.9547632679E-01	0.0000000000E+00	-1.9999840102E+02	1.0000000000E+00	0.0000000000E+00	0.0000000000E+00	0.0000000000E+00
2.0000000000E-02	4.8232419639E+01	0.0000000000E+00	6.3209222101E-01	0.0000000000E+00	0.0000000000E+00	0.0000000000E+00	9.8211615612E-01	0.0000000000E+00	-1.9999364182E+02	1.0000000000E+00	0.0000000000E+00	0.0000000000E+00	0.0000000000E+00
3.0000000000E-02	4.7393806771E+01	0.0000000000E+00	9.4003907709E-01	0.0000000000E+00	0.0000000000E+00	0.0000000000E+00	1.4602232868E+00	0.0000000000E+00	-1.9998577685E+02	1.0000000000E+00	0.0000000000E+00	0.0000000000E+00	0.0000000000E+00
4.0000000000E-02	4.6583251941E+01	0.0000000000E+00	1.2429447344E+00	0.0000000000E+00	0.0000000000E+00	0.0000000000E+00	1.9300858009E+00	0.0000000000E+00	-1.9997485784E+02	1.0000000000E+00	0.0000000000E+00	0.0000000000E+00	0.0000000000E+00
5.0000000000E-02	4.5799337577E+01	0.0000000000E+00	1.5410549890E+00	0.0000000000E+00	0.0000000000E+00	0.0000000000E+00	2.3919771112E+00	0.0000000000E+00	-1.9996093394E+02	1.0000000000E+00	0.0000000000E+00	0.0000000000E+00	0.0000000000E+00
6.0000000000E-02	4.5040738189E+01	0.0000000000E+00	1.8345990554E+00	0.0000000000E+00	0.0000000000E+00	0.0000000000E+00	2.8461569210E+00	0.0000000000E+00	-1.9994405196E+02	1.0000000000E+00	0.0000000000E+00	0.0000000000E+00	0.0000000000E+00
7.0000000000E-02	4.4306212991E+01	0.0000000000E+00	2.1237908708E+00	0.0000000000E+00	0.0000000000E+00	0.0000000000E+00	3.2928721087E+00	0.0000000000E+00	-1.9992425647E+02	1.0000000000E+00	0.0000000000E+00	0.0000000000E+00	0.0000000000E+00
8.0000000000E-02	4.3594599234E+01	0.0000000000E+00	2.4088302767E+00	0.0000000000E+00	0.0000000000E+00	0.0000000000E+00	3.7323575399E+00	0.0000000000E+00	-1.9990158998E+02	1.0000000000E+00	0.0000000000E+00	0.0000000000E+00	0.0000000000E+00
9.0000000000E-02	4.2904806150E+01	0.0000000000E+00	2.6899040897E+00	0.0000000000E+00	0.0000000000E+00	0.0000000000E+00	4.1648368175E+00	0.0000000000E+00	-1.9987609308E+02	1.0000000000E+00	0.0000000000E+00	0.0000000000E+00	0.0000000000E+00
1.0000000000E-01	4.2235809460E+01	0.0000000000E+00	2.9671870745E+00	0.0000000000E+00	0.0000000000E+00	0.0000000000E+00	4.5905229736E+00	0.0000000000E+00	-1.9984780453E+02	1.0000000000E+00	0.0000000000E+00	0.0000000000E+00	0.0000000000E+00
1.1000000000E-01	4.1586646371E+01	0.0000000000E+00	3.2408428287E+00	0.0000000000E+00	0.0000000000E+00	0.0000000000E+00	5.0096191088E+00	0.0000000000E+00	-1.9981676143E+02	1.0000000000E+00	0.0000000000E+00	0.0000000000E+00	0.0000000000E+00
1.2000000000E-01	4.0956411027E+01	0.0000000000E+00	3.5110245889E+00	0.0000000000E+00	0.0000000000E+00	0.0000000000E+00	5.4223189844E+00	0.0000000000E+00	-1.9978299925E+02	1.0000000000E+00	0.0000000000E+00	0.0000000000E+00	0.0000000000E+00
1.3000000000E-01	4.0344250353E+01	0.0000000000E+00	3.7778759662E+00	0.0000000000E+00	0.0000000000E+00	0.0000000000E+00	5.8288075698E+00	0.0000000000E+00	-1.9974655203E+02	1.0000000000E+00	0.0000000000E+00	0.0000000000E+00	0.0000000000E+00
1.4000000000E-01	3.9749360263E+01	0.0000000000E+00	4.0415316186E+00	0.0000000000E+00	0.0000000000E+00	0.0000000000E+00	6.2292615522E+00	0.0000000000E+00	-1.9970745239E+02	1.0000000000E+00	0.0000000000E+00	0.0000000000E+00	0.0000000000E+00
1.5000000000E-01	3.9170982192E+01	0.0000000000E+00	4.3021178655E+00	0.0000000000E+00	0.0000000000E+00	0.0000000000E+00	6.6238498079E+00	0.0000000000E+00	-1.9966573163E+02	1.0000000000E+00	0.0000000000E+00	0.0000000000E+00	0.0000000000E+00
1.6000000000E-01	3.8608399913E+01	0.0000000000E+00	4.5597532515E+00	0.0000000000E+00	0.0000000000E+00	0.0000000000E+00	7.0127338419E+00	0.0000000000E+00	-1.9962141986E+02	1.0000000000E+00	0.0000000000E+00	0.0000000000E+00	0.0000000000E+00
1.7000000000E-01	3.8060936632E+01	0.0000000000E+00	4.8145490635E+00	0.0000000000E+00	0.0000000000E+00	0.0000000000E+00	7.3960681965E+00	0.0000000000E+00	-1.9957454603E+02	1.0000000000E+00	0.0000000000E+00	0.0000000000E+00	0.0000000000E+00
1.8000000000E-01	3.7527952307E+01	0.0000000000E+00	5.0666098054E+00	0.0000000000E+00	0.0000000000E+00	0.0000000000E+00	7.7740008318E+00	0.0000000000E+00	-1.9952513800E+02	1.0000000000E+00	0.0000000000E+00	0.0000000000E+00	0.0000000000E+00
1.9000000000E-01	3.7008841191E+01	0.0000000000E+00	5.3160336354E+00	0.0000000000E+00	0.0000000000E+00	0.0000000000E+00	8.1466734812E+00	0.0000000000E+00	-1.9947322262E+02	1.0000000000E+00	0.0000000000E+00	0.0000000000E+00	0.0000000000E+00
2.0000000000E-01	3.6503029573E+01	0.0000000000E+00	5.5629127689E+00	0.0000000000E+00	0.0000000000E+00	0.0000000000E+00	8.5142219822E+00	0.0000000000E+00	-1.9941882581E+02	1.0000000000E+00	0.0000000000E+00	0.0000000000E+00	0.0000000000E+00
2.1000000000E-01	3.6009973689E+01	0.0000000000E+00	5.8073338495E+00	0.0000000000E+00	0.0000000000E+00	0.0000000000E+00	8.8767765869E+00	0.0000000000E+00	-1.9936197256E+02	1.0000000000E+00	0.0000000000E+00	0.0000000000E+00	0.0000000000E+00
2.2000000000E-01	3.5529157805E+01	0.0000000000E+00	6.0493782926E+00	0.0000000000E+00	0.0000000000E+00	0.0000000000E+00	9.2344622515E+00	0.0000000000E+00	-1.9930268705E+02	1.0000000000E+00	0.0000000000E+00	0.0000000000E+00	0.0000000000E+00
2.3000000000E-01	3.5060092441E+01	0.0000000000E+00	6.2891226026E+00	0.0000000000E+00	0.0000000000E+00	0.0000000000E+00	9.5873989072E+00	0.0000000000E+00	-1.9924099266E+02	1.0000000000E+00	0.0000000000E+00	0.0000000000E+00	0.0000000000E+00
2.4000000000E-01	3.4602312732E+01	0.0000000000E+00	6.5266386668E+00	0.0000000000E+00	0.0000000000E+00	0.0000000000E+00	9.9357017152E+00	0.0000000000E+00	-1.9917691203E+02	1.0000000000E+00	0.0000000000E+00	0.0000000000E+00	0.0000000000E+00
2.5000000000E-01	3.4155376909E+01	0.0000000000E+00	6.7619940282E+00	0.0000000000E+00	0.0000000000E+00	0.0000000000E+00	1.0279481304E+01	0.0000000000E+00	-1.9911046709E+02	1.0000000000E+00	0.0000000000E+00	0.0000000000E+00	0.0000000000E+00
2.6000000000E-01	3.3718864900E+01	0.0000000000E+00	6.9952521383E+00	0.0000000000E+00	0.0000000000E+00	0.0000000000E+00	1.0618843996E+01	0.0000000000E+00	-1.9904167914E+02	1.0000000000E+00	0.0000000000E+00	0.0000000000E+00	0.0000000000E+00
2.7000000000E-01	3.3292377025E+01	0.0000000000E+00	7.2264725931E+00	0.0000000000E+00	0.0000000000E+00	0.0000000000E+00	1.0953892013E+01	0.0000000000E+00	-1.9897056884E+02	1.0000000000E+00	0.0000000000E+00	0.0000000000E+00	0.0000000000E+00
2.8000000000E-01	3.2875532786E+01	0.0000000000E+00	7.4557113515E+00	0.0000000000E+00	0.0000000000E+00	0.0000000000E+00	1.1284723679E+01	0.0000000000E+00	-1.9889715629E+02	1.0000000000E+00	0.0000000000E+00	0.0000000000E+00	0.0000000000E+00
2.9000000000E-01	3.2467969753E+01	0.0000000000E+00	7.6830209402E+00	0.0000000000E+00	0.0000000000E+00	0.0000000000E+00	1.1611433603E+01	0.0000000000E+00	-1.9882146104E+02	1.0000000000E+00	0.0000000000E+00	0.0000000000E+00	0.0000000000E+00
3.0000000000E-01	3.2069342515E+01	0.0000000000E+00	7.9084506440E+00	0.0000000000E+00	0.0000000000E+00	0.0000000000E+00	1.1934112857E+01	0.0000000000E+00	-1.9874350214E+02	1.0000000000E+00	0.0000000000E+00	0.0000000000E+00	0.0000000000E+00
3.1000000000E-01	3.1679321718E+01	0.0000000000E+00	8.1320466847E+00	0.0000000000E+00	0.0000000000E+00	0.0000000000E+00	1.2252849139E+01	0.0000000000E+00	-1.9866329814E+02	1.0000000000E+00	0.0000000000E+00	0.0000000000E+00	0.0000000000E+00
3.2000000000E-01	3.1297593154E+01	0.0000000000E+00	8.3538523873E+00	0.0000000000E+00	0.0000000000E+00	0.0000000000E+00	1.2567726930E+01	0.0000000000E+00	-1.9858086717E+02	1.0000000000E+00	0.0000000000E+00	0.0000000000E+00	0.0000000000E+00
3.3000000000E-01	3.0923856929E+01	0.0000000000E+00	8.5739083370E+00	0.0000000000E+00	0.0000000000E+00	0.0000000000E+00	1.2878827641E+01	0.0000000000E+00	-1.9849622693E+02	1.0000000000E+00	0.0000000000E+00	0.0000000000E+00	0.0000000000E+00
3.4000000000E-01	3.0557826673E+01	0.0000000000E+00	8.7922525257E+00	0.0000000000E+00	0.0000000000E+00	0.0000000000E+00	1.3186229753E+01	0.0000000000E+00	-1.9840939471E+02	1.0000000000E+00	0.0000000000E+00	0.0000000000E+00	0.0000000000E+00
3.5000000000E-01	3.0199228811E+01	0.0000000000E+00	9.0089204905E+00	0.0000000000E+00	0.0000000000E+00	0.0000000000E+00	1.3490008947E+01	0.0000000000E+00	-1.9832038746E+02	1.0000000000E+00	0.0000000000E+00	0.0000000000E+00	0.0000000000E+00
3.6000000000E-01	2.9847801881E+01	0.0000000000E+00	9.2239454432E+00	0.0000000000E+00	0.0000000000E+00	0.0000000000E+00	1.3790238230E+01	0.0000000000E+00	-1.9822922178E+02	1.0000000000E+00	0.0000000000E+00	0.0000000000E+00	0.0000000000E+00
3.7000000000E-01	2.9503295890E+01	0.0000000000E+00	9.4373583926E+00	0.0000000000E+00	0.0000000000E+00	0.0000000000E+00	1.4086988053E+01	0.0000000000E+00	-1.9813591393E+02	1.0000000000E+00	0.0000000000E+00	0.0000000000E+00	0.0000000000E+00
3.8000000000E-01	2.9165471723E+01	0.0000000000E+00	9.6491882608E+00	0.0000000000E+00	0.0000000000E+00	0.0000000000E+00	1.4380326419E+01	0.0000000000E+00	-1.9804047989E+02	1.0000000000E+00	0.0000000000E+00	0.0000000000E+00	0.0000000000E+00
3.9000000000E-01	2.8834100578E+01	0.0000000000E+00	9.8594619917E+00	0.0000000000E+00	0.0000000000E+00	0.0000000000E+00	1.4670318996E+01	0.0000000000E+00	-1.9794293535E+02	1.0000000000E+00	0.0000000000E+00	0.0000000000E+00	0.0000000000E+00
4.0000000000E-01	2.8508963445E+01	0.0000000000E+00	1.0068204655E+01	0.0000000000E+00	0.0000000000E+00	0.0000000000E+00	1.4957029209E+01	0.0000000000E+00	-1.9784329575E+02	1.0000000000E+00	0.0000000000E+00	0.0000000000E+00	0.0000000000E+00
4.1000000000E-01	2.8189850614E+01	0.0000000000E+00	1.0275439543E+01	0.0000000000E+00	0.0000000000E+00	0.0000000000E+00	1.5240518344E+01	0.0000000000E+00	-1.9774157628E+02	1.0000000000E+00	0.0000000000E+00	0.0000000000E+00	0.0000000000E+00
4.2000000000E-01	2.7876561213E+01	0.0000000000E+00	1.0481188266E+01	0.0000000000E+00	0.0000000000E+00	0.0000000000E+00	1.5520845631E+01	0.0000000000E+00	-1.9763779191E+02	1.0000000000E+00	0.0000000000E+00	0.0000000000E+00	0.0000000000E+00
4.3000000000E-01	2.7568902774E+01	0.0000000000E+00	1.0685470838E+01	0.0000000000E+00	0.0000000000E+00	0.0000000000E+00	1.5798068337E+01	0.0000000000E+00	-1.9753195740E+02	1.0000000000E+00	0.0000000000E+00	0.0000000000E+00	0.0000000000E+00
4.4000000000E-01	2.7266690828E+01	0.0000000000E+00	1.0888305760E+01	0.0000000000E+00	0.0000000000E+00	0.0000000000E+00	1.6072241841E+01	0.0000000000E+00	-1.9742408732E+02	1.0000000000E+00	0.0000000000E+00	0.0000000000E+00	0.0000000000E+00
4.5000000000E-01	2.6969748521E+01	0.0000000000E+00	1.1089710106E+01	0.0000000000E+00	0.0000000000E+00	0.0000000000E+00	1.6343419718E+01	0.0000000000E+00	-1.9731419606E+02	1.0000000000E+00	0.0000000000E+00	0.0000000000E+00	0.0000000000E+00
4.6000000000E-01	2.6677906254E+01	0.0000000000E+00	1.1289699591E+01	0.0000000000E+00	0.0000000000E+00	0.0000000000E+00	1.6611653810E+01	0.0000000000E+00	-1.9720229784E+02	1.0000000000E+00	0.0000000000E+00	0.0000000000E+00	0.0000000000E+00
4.7000000000E-01	2.6391001344E+01	0.0000000000E+00	1.1488288650E+01	0.0000000000E+00	0.0000000000E+00	0.0000000000E+00	1.6876994299E+01	0.0000000000E+00	-1.9708840673E+02	1.0000000000E+00	0.0000000000E+00	0.0000000000E+00	0.0000000000E+00
4.8000000000E-01	2.6108877701E+01	0.0000000000E+00	1.1685490506E+01	0.0000000000E+00	0.0000000000E+00	0.0000000000E+00	1.7139489773E+01	0.0000000000E+00	-1.9697253669E+02	1.0000000000E+00	0.0000000000E+00	0.0000000000E+00	0.0000000000E+00
4.9000000000E-01	2.5831385533E+01	0.0000000000E+00	1.1881317234E+01	0.0000000000E+00	0.0000000000E+00	0.0000000000E+00	1.7399187291E+01	0.0000000000E+00	-1.9685470151E+02	1.0000000000E+00	0.0000000000E+00	0.0000000000E+00	0.0000000000E+00
5.0000000000E-01	2.5558381052E+01	0.0000000000E+00	1.2075779829E+01	0.0000000000E+00	0.0000000000E+00	0.0000000000E+00	1.7656132442E+01	0.0000000000E+00	-1.9673491489E+02	1.0000000000E+00	0.0000000000E+00	0.0000000000E+00	0.0000000000E+00
5.1000000000E-01	2.5289726213E+01	0.0000000000E+00	1.2268888265E+01	0.0000000000E+00	0.0000000000E+00	0.0000000000E+00	1.7910369410E+01	0.0000000000E+00	-1.9661319042E+02	1.0000000000E+00	0.0000000000E+00	0.0000000000E+00	0.0000000000E+00
5.2000000000E-01	2.5025288456E+01	0.0000000000E+00	1.2460651553E+01	0.0000000000E+00	0.0000000000E+00	0.0000000000E+00	1.8161941023E+01	0.0000000000E+00	-1.9648954161E+02	1.0000000000E+00	0.0000000000E+00	0.0000000000E+00	0.0000000000E+00
5.3000000000E-01	2.4764940464E+01	0.0000000000E+00	1.2651077799E+01	0.0000000000E+00	0.0000000000E+00	0.0000000000E+00	1.8410888811E+01	0.0000000000E+00	-1.9636398185E+02	1.0000000000E+00	0.0000000000E+00	0.0000000000E+00	0.0000000000E+00
5.4000000000E-01	2.4508559938E+01	0.0000000000E+00	1.2840174255E+01	0.0000000000E+00	0.0000000000E+00	0.0000000000E+00	1.8657253056E+01	0.0000000000E+00	-1.9623652448E+02	1.0000000000E+00	0.0000000000E+00	0.0000000000E+00	0.0000000000E+00
5.5000000000E-01	2.4256029380E+01	0.0000000000E+00	1.3027947377E+01	0.0000000000E+00	0.0000000000E+00	0.0000000000E+00	1.8901072842E+01	0.0000000000E+00	-1.9610718278E+02	1.0000000000E+00	0.0000000000E+00	0.0000000000E+00	0.0000000000E+00
5.6000000000E-01	2.4007235887E+01	0.0000000000E+00	1.3214402868E+01	0.0000000000E+00	0.0000000000E+00	0.0000000000E+00	1.9142386100E+01	0.0000000000E+00	-1.9597596993E+02	1.0000000000E+00	0.0000000000E+00	0.0000000000E+00	0.0000000000E+00
5.7000000000E-01	2.3762070957E+01	0.0000000000E+00	1.3399545732E+01	0.0000000000E+00	0.0000000000E+00	0.0000000000E+00	1.9381229654E+01	0.0000000000E+00	-1.9584289909E+02	1.0000000000E+00	0.0000000000E+00	0.0000000000E+00	0.0000000000E+00
5.8000000000E-01	2.3520430307E+01	0.0000000000E+00	1.3583380314E+01	0.0000000000E+00	0.0000000000E+00	0.0000000000E+00	1.9617639266E+01	0.0000000000E+00	-1.9570798337E+02	1.0000000000E+00	0.0000000000E+00	0.0000000000E+00	0.0000000000E+00
5.9000000000E-01	2.3282213693E+01	0.0000000000E+00	1.3765910353E+01	0.0000000000E+00	0.0000000000E+00	0.0000000000E+00	1.9851649673E+01	0.0000000000E+00	-1.9557123584E+02	1.0000000000E+00	0.0000000000E+00	0.0000000000E+00	0.0000000000E+00
6.0000000000E-01	2.3047324750E+01	0.0000000000E+00	1.3947139017E+01	0.0000000000E+00	0.0000000000E+00	0.0000000000E+00	2.0083294631E+01	0.0000000000E+00	-1.9543266951E+02	1.0000000000E+00	0.0000000000E+00	0.0000000000E+00	0.0000000000E+00
6.1000000000E-01	2.2815670826E+01	0.0000000000E+00	1.4127068948E+01	0.0000000000E+00	0.0000000000E+00	0.0000000000E+00	2.0312606951E+01	0.0000000000E+00	-1.9529229738E+02	1.0000000000E+00	0.0000000000E+00	0.0000000000E+00	0.0000000000E+00
6.2000000000E-01	2.2587162835E+01	0.0000000000E+00	1.4305702304E+01	0.0000000000E+00	0.0000000000E+00	0.0000000000E+00	2.0539618534E+01	0.0000000000E+00	-1.9515013245E+02	1.0000000000E+00	0.0000000000E+00	0.0000000000E+00	0.0000000000E+00
6.3000000000E-01	2.2361715112E+01	0.0000000000E+00	1.4483040791E+01	0.0000000000E+00	0.0000000000E+00	0.0000000000E+00	2.0764360408E+01	0.0000000000E+00	-1.9500618765E+02	1.0000000000E+00	0.0000000000E+00	0.0000000000E+00	0.0000000000E+00
6.4000000000E-01	2.2139245276E+01	0.0000000000E+00	1.4659085706E+01	0.0000000000E+00	0.0000000000E+00	0.0000000000E+00	2.0986862762E+01	0.0000000000E+00	-1.9486047594E+02	1.0000000000E+00	0.0000000000E+00	0.0000000000E+00	0.0000000000E+00
6.5000000000E-01	2.1919674098E+01	0.0000000000E+00	1.4833837972E+01	0.0000000000E+00	0.0000000000E+00	0.0000000000E+00	2.1207154975E+01	0.0000000000E+00	-1.9471301025E+02	1.0000000000E+00	0.0000000000E+00	0.0000000000E+00	0.0000000000E+00
6.6000000000E-01	2.1702925377E+01	0.0000000000E+00	1.5007298168E+01	0.0000000000E+00	0.0000000000E+00	0.0000000000E+00	2.1425265651E+01	0.0000000000E+00	-1.9456380349E+02	1.0000000000E+00	0.0000000000E+00	0.0000000000E+00	0.0000000000E+00
6.7000000000E-01	2.1488925819E+01	0.0000000000E+00	1.5179466564E+01	0.0000000000E+00	0.0000000000E+00	0.0000000000E+00	2.1641222646E+01	0.0000000000E+00	-1.9441286859E+02	1.0000000000E+00	0.0000000000E+00	0.0000000000E+00	0.0000000000E+00
6.8000000000E-01	2.1277604925E+01	0.0000000000E+00	1.5350343157E+01	0.0000000000E+00	0.0000000000E+00	0.0000000000E+00	2.1855053096E+01	0.0000000000E+00	-1.9426021847E+02	1.0000000000E+00	0.0000000000E+00	0.0000000000E+00	0.0000000000E+00
6.9000000000E-01	2.1068894877E+01	0.0000000000E+00	1.5519927695E+01	0.0000000000E+00	0.0000000000E+00	0.0000000000E+00	2.2066783447E+01	0.0000000000E+00	-1.9410586604E+02	1.0000000000E+00	0.0000000000E+00	0.0000000000E+00	0.0000000000E+00
7.0000000000E-01	2.0862730439E+01	0.0000000000E+00	1.5688219709E+01	0.0000000000E+00	0.0000000000E+00	0.0000000000E+00	2.2276439479E+01	0.0000000000E+00	-1.9394982422E+02	1.0000000000E+00	0.0000000000E+00	0.0000000000E+00	0.0000000000E+00
7.1000000000E-01	2.0659048851E+01	0.0000000000E+00	1.5855218541E+01	0.0000000000E+00	0.0000000000E+00	0.0000000000E+00	2.2484046332E+01	0.0000000000E+00	-1.9379210595E+02	1.0000000000E+00	0.0000000000E+00	0.0000000000E+00	0.0000000000E+00
7.2000000000E-01	2.0457789738E+01	0.0000000000E+00	1.6020923373E+01	0.0000000000E+00	0.0000000000E+00	0.0000000000E+00	2.2689628530E+01	0.0000000000E+00	-1.9363272416E+02	1.0000000000E+00	0.0000000000E+00	0.0000000000E+00	0.0000000000E+00
7.3000000000E-01	2.0258895012E+01	0.0000000000E+00	1.6185333248E+01	0.0000000000E+00	0.0000000000E+00	0.0000000000E+00	2.2893210007E+01	0.0000000000E+00	-1.9347169180E+02	1.0000000000E+00	0.0000000000E+00	0.0000000000E+00	0.0000000000E+00
7.4000000000E-01	2.0062308788E+01	0.0000000000E+00	1.6348447099E+01	0.0000000000E+00	0.0000000000E+00	0.0000000000E+00	2.3094814125E+01	0.0000000000E+00	-1.9330902182E+02	1.0000000000E+00	0.0000000000E+00	0.0000000000E+00	0.0000000000E+00
7.5000000000E-01	1.9867977299E+01	0.0000000000E+00	1.6510263771E+01	0.0000000000E+00	0.0000000000E+00	0.0000000000E+00	2.3294463699E+01	0.0000000000E+00	-1.9314472718E+02	1.0000000000E+00	0.0000000000E+00	0.0000000000E+00	0.0000000000E+00
7.6000000000E-01	1.9675848811E+01	0.0000000000E+00	1.6670782043E+01	0.0000000000E+00	0.0000000000E+00	0.0000000000E+00	2.3492181014E+01	0.0000000000E+00	-1.9297882087E+02	1.0000000000E+00	0.0000000000E+00	0.0000000000E+00	0.0000000000E+00
7.7000000000E-01	1.9485873546E+01	0.0000000000E+00	1.6830000651E+01	0.0000000000E+00	0.0000000000E+00	0.0000000000E+00	2.3687987852E+01	0.0000000000E+00	-1.9281131587E+02	1.0000000000E+00	0.0000000000E+00	0.0000000000E+00	0.0000000000E+00
7.8000000000E-01	1.9298003608E+01	0.0000000000E+00	1.6987918306E+01	0.0000000000E+00	0.0000000000E+00	0.0000000000E+00	2.3881905503E+01	0.0000000000E+00	-1.9264222519E+02	1.0000000000E+00	0.0000000000E+00	0.0000000000E+00	0.0000000000E+00
7.9000000000E-01	1.9112192908E+01	0.0000000000E+00	1.7144533717E+01	0.0000000000E+00	0.0000000000E+00	0.0000000000E+00	2.4073954788E+01	0.0000000000E+00	-1.9247156185E+02	1.0000000000E+00	0.0000000000E+00	0.0000000000E+00	0.0000000000E+00
8.0000000000E-01	1.8928397098E+01	0.0000000000E+00	1.7299845607E+01	0.0000000000E+00	0.0000000000E+00	0.0000000000E+00	2.4264156077E+01	0.0000000000E+00	-1.9229933887E+02	1.0000000000E+00	0.0000000000E+00	0.0000000000E+00	0.0000000000E+00
8.1000000000E-01	1.8746573500E+01	0.0000000000E+00	1.7453852730E+01	0.0000000000E+00	0.0000000000E+00	0.0000000000E+00	2.4452529304E+01	0.0000000000E+00	-1.9212556929E+02	1.0000000000E+00	0.0000000000E+00	0.0000000000E+00	0.0000000000E+00
8.2000000000E-01	1.8566681041E+01	0.0000000000E+00	1.7606553890E+01	0.0000000000E+00	0.0000000000E+00	0.0000000000E+00	2.4639093984E+01	0.0000000000E+00	-1.9195026616E+02	1.0000000000E+00	0.0000000000E+00	0.0000000000E+00	0.0000000000E+00
